Temperature (℃),Solubility coefficient (mol/L·atm),,,
0,6.724,,,
1,6.465,,,
2,6.219,,,
3,5.986,,,
4,5.766,,,
5,5.358,,,
6,5.170,,,
8,4.822,,,
10,4.507,,,
12,4.222,,,
14,3.964,,,
16,3.729,,,
18,3.516,,,
20,3.322,,,
22,3.144,,,
24,2.982,,,
26,2.833,,,
28,2.697,,,
30,2.572,,,
32,2.457,,,
34,2.352,,,
36,2.254,,,
38,2.165,,,
40,2.082,,,